0,0.4081
1,0.3650
2,0.3378
3,0.3198
4,0.3056
5,0.2921
6,0.2831
7,0.2740
8,0.2671
9,0.2593
10,0.2531
11,0.2470
12,0.2418
13,0.2367
14,0.2321
15,0.2276
16,0.2238
17,0.2194
18,0.2156
19,0.2119
20,0.2086
21,0.2055
22,0.2028
23,0.2002
24,0.1978
25,0.1949
26,0.1924
27,0.1904
28,0.1882
29,0.1860
30,0.1836
31,0.1818
32,0.1798
33,0.1779
34,0.1763
35,0.1746
36,0.1729
37,0.1713
38,0.1696
39,0.1683
40,0.1673
41,0.1659
42,0.1650
43,0.1631
44,0.1622
45,0.1612
46,0.1600
47,0.1587
48,0.1575
49,0.1563
50,0.1554
51,0.1542
52,0.1534
53,0.1524
54,0.1515
55,0.1506
56,0.1494
57,0.1487
58,0.1477
59,0.1468
60,0.1459
61,0.1450
62,0.1445
63,0.1434
64,0.1424
65,0.1419
66,0.1410
67,0.1403
68,0.1397
69,0.1387
70,0.1380
71,0.1373
72,0.1365
73,0.1357
74,0.1352
75,0.1345
76,0.1335
77,0.1329
78,0.1325
79,0.1320
80,0.1312
81,0.1304
82,0.1298
83,0.1295
84,0.1290
85,0.1287
86,0.1278
87,0.1273
88,0.1268
89,0.1263
90,0.1254
91,0.1249
92,0.1244
93,0.1238
94,0.1232
95,0.1224
96,0.1217
97,0.1211
98,0.1204
99,0.1197
100,0.1190
101,0.1184
102,0.1175
103,0.1167
104,0.1163
105,0.1158
106,0.1149
107,0.1141
108,0.1134
109,0.1128
110,0.1120
111,0.1116
112,0.1106
113,0.1099
114,0.1095
115,0.1090
116,0.1080
117,0.1074
118,0.1069
119,0.1062
120,0.1055
121,0.1046
122,0.1039
123,0.1033
124,0.1024
125,0.1017
126,0.1008
127,0.1000
128,0.0987
129,0.0976
130,0.0967
131,0.0955
132,0.0945
133,0.0934
134,0.0925
135,0.0916
136,0.0907
137,0.0898
138,0.0890
139,0.0882
140,0.0876
141,0.0870
142,0.0863
143,0.0858
144,0.0853
145,0.0848
146,0.0843
147,0.0838
148,0.0834
149,0.0829
150,0.0825
151,0.0822
152,0.0818
153,0.0815
154,0.0812
155,0.0808
156,0.0806
157,0.0803
158,0.0800
159,0.0797
160,0.0795
161,0.0793
162,0.0791
163,0.0788
164,0.0786
165,0.0783
166,0.0781
167,0.0779
168,0.0776
169,0.0774
170,0.0772
171,0.0770
172,0.0768
173,0.0765
174,0.0764
175,0.0762
176,0.0760
177,0.0758
178,0.0756
179,0.0754
180,0.0752
181,0.0751
182,0.0749
183,0.0748
184,0.0746
185,0.0744
186,0.0743
187,0.0742
188,0.0741
189,0.0740
190,0.0739
191,0.0738
192,0.0737
193,0.0736
194,0.0735
195,0.0734
196,0.0733
197,0.0732
198,0.0731
199,0.0730
200,0.0729
201,0.0728
202,0.0728
203,0.0727
204,0.0726
205,0.0725
206,0.0725
207,0.0724
208,0.0723
209,0.0723
210,0.0722
211,0.0721
212,0.0720
213,0.0720
214,0.0719
215,0.0719
216,0.0718
217,0.0717
218,0.0717
219,0.0716
220,0.0716
221,0.0715
222,0.0715
223,0.0714
224,0.0714
225,0.0714
226,0.0713
227,0.0713
228,0.0713
229,0.0712
230,0.0712
231,0.0712
232,0.0711
233,0.0711
234,0.0711
235,0.0711
236,0.0710
237,0.0710
238,0.0710
239,0.0710
240,0.0710
241,0.0709
242,0.0709
243,0.0709
244,0.0709
245,0.0709
246,0.0709
247,0.0709
248,0.0708
249,0.0708
250,0.0708
251,0.0708
252,0.0708
253,0.0708
254,0.0708
255,0.0708
256,0.0707
257,0.0707
258,0.0707
259,0.0707
260,0.0707
261,0.0707
262,0.0707
263,0.0707
264,0.0707
265,0.0707
266,0.0706
267,0.0706
268,0.0706
269,0.0706
270,0.0706
271,0.0706
272,0.0706
273,0.0706
274,0.0706
275,0.0706
276,0.0706
277,0.0706
278,0.0706
279,0.0706
280,0.0706
281,0.0705
282,0.0705
283,0.0705
284,0.0705
285,0.0705
286,0.0705
287,0.0705
288,0.0705
289,0.0705
290,0.0705
291,0.0705
292,0.0705
293,0.0705
294,0.0705
295,0.0705
296,0.0705
297,0.0705
298,0.0705
299,0.0705
300,0.0705
301,0.0705
302,0.0705
303,0.0704
304,0.0704
305,0.0704
306,0.0704
307,0.0704
308,0.0704
309,0.0704
310,0.0704
311,0.0704
312,0.0704
313,0.0704
314,0.0704
315,0.0704
316,0.0704
317,0.0704
318,0.0704
319,0.0704
320,0.0704
321,0.0703
322,0.0703
323,0.0703
324,0.0703
325,0.0703
326,0.0703
327,0.0703
328,0.0703
329,0.0703
330,0.0703
331,0.0703
332,0.0703
333,0.0703
334,0.0702
335,0.0702
336,0.0702
337,0.0702
338,0.0702
339,0.0702
340,0.0702
341,0.0702
342,0.0702
343,0.0702
344,0.0702
345,0.0701
346,0.0701
347,0.0701
348,0.0701
349,0.0701
350,0.0701
351,0.0701
352,0.0701
353,0.0701
354,0.0701
355,0.0701
356,0.0700
357,0.0700
358,0.0700
359,0.0700
360,0.0700
361,0.0700
362,0.0700
363,0.0700
364,0.0700
365,0.0700
366,0.0700
367,0.0700
368,0.0700
369,0.0699
370,0.0699
371,0.0699
372,0.0699
373,0.0699
374,0.0699
375,0.0699
376,0.0699
377,0.0699
378,0.0699
379,0.0699
380,0.0699
381,0.0699
382,0.0699
383,0.0698
384,0.0698
385,0.0698
386,0.0698
387,0.0698
388,0.0698
389,0.0698
390,0.0698
391,0.0698
392,0.0698
393,0.0698
394,0.0698
395,0.0698
396,0.0698
397,0.0698
398,0.0698
399,0.0698
400,0.0698
401,0.0698
402,0.0698
403,0.0698
404,0.0697
405,0.0697
406,0.0697
407,0.0697
408,0.0697
409,0.0697
410,0.0697
411,0.0697
412,0.0697
413,0.0697
414,0.0697
415,0.0697
416,0.0697
417,0.0697
418,0.0697
419,0.0697
420,0.0697
421,0.0697
422,0.0697
423,0.0697
424,0.0697
425,0.0697
426,0.0697
427,0.0697
428,0.0697
429,0.0697
430,0.0697
431,0.0697
432,0.0697
433,0.0697
434,0.0697
435,0.0697
436,0.0697
437,0.0696
438,0.0696
439,0.0696
440,0.0696
441,0.0696
442,0.0696
443,0.0696
444,0.0696
445,0.0696
446,0.0696
447,0.0696
448,0.0696
449,0.0696
450,0.0696
451,0.0696
452,0.0696
453,0.0696
454,0.0696
455,0.0696
456,0.0696
457,0.0696
458,0.0696
459,0.0696
460,0.0696
461,0.0696
462,0.0696
463,0.0696
464,0.0696
465,0.0696
466,0.0696
467,0.0696
468,0.0696
469,0.0696
470,0.0696
471,0.0696
472,0.0696
473,0.0696
474,0.0696
475,0.0696
476,0.0696
477,0.0696
478,0.0696
479,0.0696
480,0.0696
481,0.0696
482,0.0696
483,0.0696
484,0.0696
485,0.0696
486,0.0696
487,0.0696
488,0.0696
489,0.0696
490,0.0696
491,0.0696
492,0.0696
493,0.0696
494,0.0696
495,0.0695
496,0.0695
497,0.0695
498,0.0695
499,0.0695
