0,42064.0598
1,41449.0970
2,13413.7878
3,43663.5724
4,13927.3564
5,11571.3973
6,16074.2205
7,13162.5385
8,8534.5599
9,5028.1239
10,5445.9801
11,4993.8265
12,4994.6775
13,3941.4225
14,2001.1790
15,3260.2548
16,2625.7493
17,1550.0160
18,3665.3519
19,1726.0968
20,2381.0563
21,2351.5577
22,1636.0235
23,3725.3891
24,1783.5056
25,5520.4432
26,5373.6530
27,3499.2612
28,4501.5427
29,3102.3090
30,3309.6659
31,1887.5031
32,6527.1528
33,2041.3743
34,3492.4491
35,2152.3559
36,1489.5441
37,1810.1245
38,1291.9037
39,1800.6808
40,1634.1963
41,1279.3394
42,764.1311
43,1953.1922
44,796.2805
45,1488.6471
46,888.2402
47,531.0121
48,440.4615
49,972.8620
50,676.8451
51,507.0202
52,701.4216
53,355.4877
54,670.0695
55,533.1141
56,288.9855
57,250.6021
58,145.4233
59,146.4545
60,87.9795
61,83.8848
62,132.1937
63,76.6615
64,64.3706
65,154.6484
66,112.0991
67,85.7479
68,109.5916
69,104.5819
70,101.4213
71,86.7135
72,64.2880
73,313.0522
74,63.7980
75,45.5572
76,156.2195
77,50.3085
78,45.3029
79,59.5819
80,102.4174
81,235.5424
82,38.5876
83,52.2864
84,66.4141
85,54.6618
86,26.9068
87,39.3980
88,118.4936
89,30.0736
90,39.8416
91,52.5614
92,18.2241
93,45.6103
94,26.5184
95,21.9929
96,20.3621
97,12.4992
98,7.8462
99,17.0518
100,7.5513
101,35.8309
102,39.3877
103,11.6716
104,17.1383
105,8.2565
106,23.8902
107,2.8883
108,13.9435
109,16.9705
110,5.3479
111,4.1475
112,1.8298
113,9.5047
114,1.7653
115,13.2793
116,22.7310
117,3.8033
118,10.1911
119,2.0280
120,4.6169
121,8.1587
122,13.3011
123,5.5549
124,3.0288
125,4.0233
126,3.8366
127,1.3307
128,0.8970
129,14.5115
130,7.3493
131,0.9277
132,14.6358
133,6.5967
134,2.2297
135,3.2044
136,1.5544
137,4.2396
138,0.8378
139,1.3999
140,2.6103
141,1.8644
142,4.2293
143,4.5260
144,0.8374
145,1.4794
146,1.2683
147,0.6619
148,6.4778
149,1.1622
150,2.0240
151,0.8543
152,0.5907
153,1.5552
154,0.4364
155,1.3757
156,0.2600
157,0.8120
158,1.8425
159,2.6407
160,0.2527
161,0.6966
162,0.3515
163,0.4621
164,0.2517
165,0.1740
166,0.5401
167,1.1443
168,0.8832
169,0.3652
170,0.2367
171,0.6760
172,1.7541
173,1.5946
174,0.5709
175,0.2336
176,0.1500
177,0.1228
178,0.3418
179,0.1084
180,0.1409
181,1.2952
182,0.2392
183,0.0804
184,0.0570
185,0.2525
186,0.0957
187,0.0683
188,0.0804
189,0.0566
190,0.4568
191,0.0795
192,0.1235
193,0.0168
194,0.7614
195,0.0649
196,0.1043
197,0.1534
198,0.2148
199,0.0674
200,0.2666
201,0.1064
202,0.0390
203,0.0261
204,0.2434
205,0.1474
206,0.0691
207,0.0840
208,0.0213
209,0.0425
210,0.1006
211,0.0349
212,0.0275
213,0.0660
214,0.0097
215,0.0336
216,0.0900
217,0.0386
218,0.0210
219,0.0398
220,0.0644
221,0.0254
222,0.0128
223,0.0233
224,0.0340
225,0.0162
226,0.0245
227,0.0069
228,0.0486
229,0.0179
230,0.0392
231,0.0036
232,0.0203
233,0.0082
234,0.0156
235,0.0042
236,0.0244
237,0.0161
238,0.0115
239,0.0027
240,0.0278
241,0.0160
242,0.0068
243,0.0216
244,0.0024
245,0.0095
246,0.0036
247,0.0075
248,0.0066
249,0.0188
250,0.0058
251,0.0062
252,0.0151
253,0.0041
254,0.0235
255,0.0088
256,0.0089
257,0.0111
258,0.0024
259,0.0112
260,0.0027
261,0.0027
262,0.0048
263,0.0033
264,0.0123
265,0.0016
266,0.0027
267,0.0093
268,0.0083
269,0.0095
270,0.0028
271,0.0065
272,0.0052
273,0.0024
274,0.0039
275,0.0053
276,0.0018
277,0.0023
278,0.0030
279,0.0012
280,0.0036
281,0.0061
282,0.0031
283,0.0020
284,0.0008
285,0.0011
286,0.0013
287,0.0011
288,0.0016
289,0.0015
290,0.0018
291,0.0021
292,0.0019
293,0.0014
294,0.0021
295,0.0006
296,0.0014
297,0.0008
298,0.0041
299,0.0012
300,0.0008
301,0.0013
302,0.0010
303,0.0015
304,0.0060
305,0.0009
306,0.0024
307,0.0014
308,0.0013
309,0.0027
310,0.0004
311,0.0013
312,0.0008
313,0.0047
314,0.0057
315,0.0012
316,0.0008
317,0.0003
318,0.0007
319,0.0011
320,0.0006
321,0.0010
322,0.0024
323,0.0004
324,0.0008
325,0.0006
326,0.0022
327,0.0002
328,0.0010
329,0.0003
330,0.0007
331,0.0010
332,0.0024
333,0.0024
334,0.0028
335,0.0005
336,0.0018
337,0.0010
338,0.0038
339,0.0006
340,0.0004
341,0.0013
342,0.0010
343,0.0006
344,0.0003
345,0.0006
346,0.0016
347,0.0009
348,0.0005
349,0.0006
350,0.0007
351,0.0006
352,0.0015
353,0.0005
354,0.0007
355,0.0003
356,0.0003
357,0.0007
358,0.0006
359,0.0011
360,0.0002
361,0.0020
362,0.0004
363,0.0009
364,0.0007
365,0.0003
366,0.0002
367,0.0022
368,0.0007
369,0.0001
370,0.0006
371,0.0004
372,0.0013
373,0.0005
374,0.0009
375,0.0035
376,0.0016
377,0.0004
378,0.0002
379,0.0004
380,0.0003
381,0.0003
382,0.0003
383,0.0003
384,0.0001
385,0.0003
386,0.0001
387,0.0004
388,0.0002
389,0.0002
390,0.0007
391,0.0008
392,0.0012
393,0.0006
394,0.0001
395,0.0003
396,0.0001
397,0.0003
398,0.0002
399,0.0003
400,0.0005
401,0.0002
402,0.0006
403,0.0003
404,0.0018
405,0.0004
406,0.0006
407,0.0003
408,0.0008
409,0.0002
410,0.0003
411,0.0001
412,0.0007
413,0.0001
414,0.0002
415,0.0001
416,0.0005
417,0.0008
418,0.0004
419,0.0001
420,0.0003
421,0.0002
422,0.0001
423,0.0009
424,0.0010
425,0.0004
426,0.0005
427,0.0004
428,0.0015
429,0.0004
430,0.0003
431,0.0003
432,0.0008
433,0.0002
434,0.0004
435,0.0006
436,0.0002
437,0.0003
438,0.0004
439,0.0003
440,0.0003
441,0.0001
442,0.0004
443,0.0001
444,0.0003
445,0.0005
446,0.0004
447,0.0004
448,0.0002
449,0.0005
450,0.0002
451,0.0005
452,0.0002
453,0.0004
454,0.0004
455,0.0001
456,0.0005
457,0.0001
458,0.0002
459,0.0004
460,0.0002
461,0.0002
462,0.0001
463,0.0018
464,0.0012
465,0.0016
466,0.0004
467,0.0003
468,0.0002
469,0.0003
470,0.0001
471,0.0008
472,0.0002
473,0.0001
474,0.0003
475,0.0027
476,0.0003
477,0.0007
478,0.0003
479,0.0002
480,0.0006
481,0.0002
482,0.0001
483,0.0001
484,0.0003
485,0.0004
486,0.0001
487,0.0002
488,0.0002
489,0.0002
490,0.0002
491,0.0004
492,0.0006
493,0.0002
494,0.0002
495,0.0004
496,0.0006
497,0.0015
498,0.0005
499,0.0018
