0,80268.8146
1,24818.5559
2,14814.4757
3,8511.2122
4,7605.8315
5,4778.2973
6,4445.3311
7,3605.1831
8,2832.8373
9,1085.0581
10,1816.2390
11,860.5160
12,733.6516
13,547.3687
14,943.8560
15,268.5815
16,907.8949
17,231.3969
18,796.4590
19,449.8380
20,255.8013
21,215.2566
22,262.7160
23,322.4314
24,433.1420
25,58.2248
26,65.5483
27,51.7190
28,31.5650
29,24.1176
30,44.2659
31,10.8474
32,18.3461
33,11.6129
34,24.6064
35,8.0799
36,14.0171
37,7.0200
38,7.9153
39,10.7205
40,4.2882
41,2.7901
42,2.0262
43,3.3716
44,3.0191
45,2.0024
46,1.1832
47,1.7631
48,1.3465
49,1.9693
50,1.2376
51,0.9624
52,0.4393
53,0.5741
54,0.8294
55,0.4107
56,0.7128
57,0.5785
58,0.7244
59,0.1732
60,0.7164
61,0.2423
62,0.1883
63,0.2913
64,0.1971
65,0.2309
66,0.0933
67,0.1173
68,0.4672
69,0.1201
70,0.1015
71,0.1637
72,0.1244
73,0.1198
74,0.1209
75,0.1327
76,0.1104
77,0.0695
78,0.1190
79,0.0996
80,0.0948
81,0.0952
82,0.0193
83,0.1071
84,0.1300
85,0.0474
86,0.1149
87,0.0055
88,0.0587
89,0.1006
90,0.0585
91,0.0608
92,0.0841
93,0.0193
94,0.1001
95,0.0619
96,0.0323
97,0.0313
98,0.0582
99,0.0457
100,0.0094
101,0.0238
102,0.0256
103,0.0256
104,0.0376
105,0.0137
106,0.0126
107,0.0178
108,0.0193
109,0.0195
110,0.0108
111,0.0046
112,0.0082
113,0.0084
114,0.0066
115,0.0082
116,0.0036
117,0.0046
118,0.0028
119,0.0020
120,0.0023
121,0.0013
122,0.0021
123,0.0012
124,0.0010
125,0.0019
126,0.0008
127,0.0010
128,0.0005
129,0.0006
130,0.0008
131,0.0005
132,0.0004
133,0.0005
134,0.0004
135,0.0003
136,0.0004
137,0.0002
138,0.0005
139,0.0002
140,0.0004
141,0.0002
142,0.0002
143,0.0003
144,0.0001
145,0.0001
146,0.0002
147,0.0002
148,0.0002
149,0.0000
150,0.0001
151,0.0001
152,0.0001
153,0.0002
154,0.0001
155,0.0001
156,0.0001
157,0.0001
158,0.0001
159,0.0000
160,0.0001
161,0.0000
162,0.0001
163,0.0001
164,0.0000
165,0.0001
166,0.0001
167,0.0001
168,0.0000
169,0.0001
170,0.0001
171,0.0000
172,0.0001
173,0.0001
174,0.0000
175,0.0001
176,0.0001
177,0.0000
178,0.0001
179,0.0001
180,0.0000
181,0.0001
182,0.0000
183,0.0001
184,0.0000
185,0.0000
186,0.0001
187,0.0001
188,0.0001
189,0.0001
190,0.0000
191,0.0001
192,0.0000
193,0.0001
194,0.0001
195,0.0001
196,0.0001
197,0.0000
198,0.0001
199,0.0000
200,0.0000
201,0.0000
202,0.0000
203,0.0001
204,0.0001
205,0.0000
206,0.0000
207,0.0000
208,0.0000
209,0.0001
210,0.0000
211,0.0001
212,0.0000
213,0.0001
214,0.0000
215,0.0001
216,0.0001
217,0.0000
218,0.0001
219,0.0000
220,0.0000
221,0.0001
222,0.0000
223,0.0001
224,0.0000
225,0.0001
226,0.0000
227,0.0000
228,0.0001
229,0.0001
230,0.0000
231,0.0000
232,0.0001
233,0.0000
234,0.0000
235,0.0000
236,0.0000
237,0.0000
238,0.0000
239,0.0000
240,0.0000
241,0.0000
242,0.0001
243,0.0000
244,0.0001
245,0.0000
246,0.0000
247,0.0000
248,0.0000
249,0.0000
250,0.0000
251,0.0000
252,0.0000
253,0.0000
254,0.0001
255,0.0000
256,0.0001
257,0.0000
258,0.0000
259,0.0000
260,0.0000
261,0.0001
262,0.0001
263,0.0000
264,0.0001
265,0.0000
266,0.0000
267,0.0000
268,0.0000
269,0.0000
270,0.0000
271,0.0001
272,0.0000
273,0.0000
274,0.0000
275,0.0001
276,0.0000
277,0.0001
278,0.0000
279,0.0001
280,0.0000
281,0.0001
282,0.0000
283,0.0000
284,0.0000
285,0.0000
286,0.0000
287,0.0001
288,0.0000
289,0.0000
290,0.0001
291,0.0000
292,0.0001
293,0.0000
294,0.0000
295,0.0000
296,0.0000
297,0.0001
298,0.0001
299,0.0000
300,0.0000
301,0.0000
302,0.0000
303,0.0001
304,0.0000
305,0.0000
306,0.0001
307,0.0000
308,0.0001
309,0.0001
310,0.0000
311,0.0000
312,0.0000
313,0.0001
314,0.0001
315,0.0000
316,0.0001
317,0.0000
318,0.0000
319,0.0001
320,0.0001
321,0.0001
322,0.0000
323,0.0000
324,0.0001
325,0.0000
326,0.0000
327,0.0001
328,0.0000
329,0.0001
330,0.0000
331,0.0001
332,0.0000
333,0.0001
334,0.0000
335,0.0000
336,0.0001
337,0.0000
338,0.0000
339,0.0001
340,0.0001
341,0.0000
342,0.0001
343,0.0000
344,0.0000
345,0.0000
346,0.0001
347,0.0000
348,0.0001
349,0.0001
350,0.0000
351,0.0000
352,0.0000
353,0.0001
354,0.0001
355,0.0001
356,0.0000
357,0.0000
358,0.0000
359,0.0000
360,0.0000
361,0.0000
362,0.0000
363,0.0000
364,0.0000
365,0.0000
366,0.0000
367,0.0000
368,0.0000
369,0.0000
370,0.0000
371,0.0000
372,0.0000
373,0.0000
374,0.0000
375,0.0001
376,0.0000
377,0.0000
378,0.0001
379,0.0000
380,0.0000
381,0.0000
382,0.0000
383,0.0000
384,0.0000
385,0.0001
386,0.0000
387,0.0001
388,0.0001
389,0.0001
390,0.0000
391,0.0001
392,0.0000
393,0.0000
394,0.0000
395,0.0000
396,0.0000
397,0.0000
398,0.0000
399,0.0000
400,0.0001
401,0.0001
402,0.0000
403,0.0001
404,0.0000
405,0.0000
406,0.0001
407,0.0000
408,0.0001
409,0.0000
410,0.0000
411,0.0001
412,0.0000
413,0.0001
414,0.0000
415,0.0000
416,0.0000
417,0.0001
418,0.0001
419,0.0000
420,0.0000
421,0.0001
422,0.0000
423,0.0001
424,0.0001
425,0.0000
426,0.0000
427,0.0001
428,0.0000
429,0.0000
430,0.0001
431,0.0000
432,0.0000
433,0.0000
434,0.0000
435,0.0001
436,0.0001
437,0.0000
438,0.0000
439,0.0000
440,0.0000
441,0.0000
442,0.0001
443,0.0001
444,0.0001
445,0.0000
446,0.0000
447,0.0000
448,0.0000
449,0.0001
450,0.0000
451,0.0000
452,0.0000
453,0.0000
454,0.0000
455,0.0000
456,0.0001
457,0.0000
458,0.0000
459,0.0000
460,0.0001
461,0.0000
462,0.0000
463,0.0000
464,0.0001
465,0.0000
466,0.0000
467,0.0001
468,0.0001
469,0.0000
470,0.0000
471,0.0000
472,0.0000
473,0.0000
474,0.0001
475,0.0001
476,0.0000
477,0.0000
478,0.0001
479,0.0000
480,0.0001
481,0.0000
482,0.0001
483,0.0000
484,0.0000
485,0.0000
486,0.0001
487,0.0001
488,0.0000
489,0.0001
490,0.0000
491,0.0000
492,0.0001
493,0.0000
494,0.0000
495,0.0001
496,0.0000
497,0.0000
498,0.0001
499,0.0000
