0,846121.4558
1,140891.5541
2,15246.1857
3,50256.8399
4,16834.2771
5,30113.7338
6,6837.6555
7,6947.0100
8,4453.0410
9,7213.8635
10,3132.5494
11,13361.6311
12,6415.2539
13,16983.9786
14,10202.5148
15,2464.3037
16,3730.6452
17,5239.7375
18,3721.9468
19,1266.8408
20,2009.6620
21,1249.6523
22,1415.3967
23,1487.8885
24,849.6711
25,809.9817
26,899.7210
27,1095.2700
28,960.6352
29,785.1404
30,507.7734
31,505.9143
32,399.2313
33,909.2800
34,582.9747
35,381.8903
36,235.5213
37,430.7489
38,473.1277
39,250.1662
40,418.0681
41,232.6782
42,226.5214
43,416.6204
44,325.0370
45,248.4320
46,694.0602
47,336.6247
48,493.0846
49,208.4467
50,200.6133
51,136.5844
52,354.8548
53,413.7880
54,45.3183
55,132.2641
56,203.6800
57,120.3526
58,225.2778
59,122.9561
60,74.2248
61,44.5270
62,42.5834
63,10.5645
64,9.9163
65,8.7068
66,7.0865
67,6.1809
68,2.1219
69,5.1822
70,2.8912
71,1.9840
72,4.3875
73,1.6005
74,2.5913
75,2.0899
76,2.4270
77,1.7115
78,2.7307
79,1.1753
80,1.0182
81,0.9690
82,1.1048
83,1.2902
84,2.1297
85,0.5207
86,1.1278
87,0.7543
88,0.6510
89,1.1822
90,0.8083
91,0.2329
92,0.7001
93,0.7202
94,0.5560
95,0.5831
96,0.4328
97,0.3220
98,0.3258
99,0.6938
100,0.2346
101,0.3514
102,0.5574
103,0.3715
104,0.1261
105,0.1972
106,0.2410
107,0.2547
108,0.3361
109,0.4042
110,0.1367
111,0.0894
112,0.1219
113,0.2439
114,0.0779
115,0.1820
116,0.0194
117,0.0893
118,0.0719
119,0.0388
120,0.0805
121,0.1183
122,0.1491
123,0.0424
124,0.0266
125,0.0278
126,0.0351
127,0.0245
128,0.0164
129,0.0407
130,0.0129
131,0.0307
132,0.0213
133,0.0235
134,0.0544
135,0.0070
136,0.0471
137,0.0031
138,0.0126
139,0.0176
140,0.0180
141,0.0256
142,0.0118
143,0.0020
144,0.0072
145,0.0153
146,0.0105
147,0.0054
148,0.0060
149,0.0084
150,0.0037
151,0.0035
152,0.0041
153,0.0064
154,0.0014
155,0.0054
156,0.0018
157,0.0034
158,0.0067
159,0.0015
160,0.0022
161,0.0032
162,0.0035
163,0.0015
164,0.0034
165,0.0011
166,0.0013
167,0.0008
168,0.0014
169,0.0019
170,0.0009
171,0.0025
172,0.0015
173,0.0012
174,0.0013
175,0.0014
176,0.0017
177,0.0006
178,0.0011
179,0.0009
180,0.0012
181,0.0006
182,0.0010
183,0.0007
184,0.0016
185,0.0007
186,0.0008
187,0.0004
188,0.0005
189,0.0008
190,0.0008
191,0.0003
192,0.0005
193,0.0008
194,0.0008
195,0.0003
196,0.0003
197,0.0007
198,0.0003
199,0.0002
200,0.0003
201,0.0003
202,0.0002
203,0.0004
204,0.0001
205,0.0005
206,0.0003
207,0.0002
208,0.0002
209,0.0003
210,0.0003
211,0.0004
212,0.0002
213,0.0002
214,0.0004
215,0.0002
216,0.0001
217,0.0002
218,0.0003
219,0.0003
220,0.0002
221,0.0001
222,0.0003
223,0.0002
224,0.0002
225,0.0002
226,0.0001
227,0.0002
228,0.0004
229,0.0003
230,0.0003
231,0.0002
232,0.0000
233,0.0004
234,0.0001
235,0.0002
236,0.0000
237,0.0004
238,0.0003
239,0.0002
240,0.0004
241,0.0002
242,0.0001
243,0.0002
244,0.0001
245,0.0002
246,0.0003
247,0.0001
248,0.0001
249,0.0003
250,0.0003
251,0.0002
252,0.0002
253,0.0002
254,0.0003
255,0.0003
256,0.0002
257,0.0001
258,0.0001
259,0.0002
260,0.0003
261,0.0001
262,0.0002
263,0.0001
264,0.0004
265,0.0001
266,0.0002
267,0.0001
268,0.0001
269,0.0002
270,0.0003
271,0.0002
272,0.0002
273,0.0003
274,0.0003
275,0.0001
276,0.0001
277,0.0002
278,0.0001
279,0.0004
280,0.0002
281,0.0001
282,0.0002
283,0.0006
284,0.0003
285,0.0001
286,0.0001
287,0.0001
288,0.0001
289,0.0001
290,0.0002
291,0.0002
292,0.0001
293,0.0001
294,0.0001
295,0.0001
296,0.0001
297,0.0002
298,0.0001
299,0.0003
300,0.0001
301,0.0002
302,0.0001
303,0.0001
304,0.0004
305,0.0002
306,0.0002
307,0.0002
308,0.0001
309,0.0001
310,0.0001
311,0.0002
312,0.0001
313,0.0002
314,0.0001
315,0.0001
316,0.0001
317,0.0002
318,0.0001
319,0.0002
320,0.0002
321,0.0002
322,0.0001
323,0.0001
324,0.0001
325,0.0002
326,0.0001
327,0.0002
328,0.0002
329,0.0001
330,0.0002
331,0.0001
332,0.0002
333,0.0001
334,0.0001
335,0.0003
336,0.0004
337,0.0002
338,0.0003
339,0.0001
340,0.0001
341,0.0001
342,0.0003
343,0.0002
344,0.0000
345,0.0001
346,0.0001
347,0.0002
348,0.0002
349,0.0001
350,0.0001
351,0.0000
352,0.0001
353,0.0001
354,0.0002
355,0.0001
356,0.0001
357,0.0002
358,0.0001
359,0.0003
360,0.0001
361,0.0002
362,0.0001
363,0.0002
364,0.0000
365,0.0001
366,0.0002
367,0.0001
368,0.0001
369,0.0001
370,0.0002
371,0.0001
372,0.0001
373,0.0003
374,0.0000
375,0.0002
376,0.0001
377,0.0002
378,0.0000
379,0.0002
380,0.0001
381,0.0001
382,0.0001
383,0.0001
384,0.0003
385,0.0001
386,0.0003
387,0.0001
388,0.0001
389,0.0001
390,0.0001
391,0.0001
392,0.0001
393,0.0001
394,0.0000
395,0.0001
396,0.0002
397,0.0002
398,0.0001
399,0.0001
400,0.0001
401,0.0001
402,0.0002
403,0.0000
404,0.0001
405,0.0002
406,0.0001
407,0.0002
408,0.0000
409,0.0001
410,0.0001
411,0.0001
412,0.0001
413,0.0001
414,0.0001
415,0.0002
416,0.0001
417,0.0001
418,0.0001
419,0.0003
420,0.0001
421,0.0002
422,0.0001
423,0.0001
424,0.0002
425,0.0000
426,0.0001
427,0.0001
428,0.0001
429,0.0001
430,0.0001
431,0.0001
432,0.0001
433,0.0000
434,0.0001
435,0.0001
436,0.0002
437,0.0005
438,0.0002
439,0.0001
440,0.0001
441,0.0002
442,0.0003
443,0.0001
444,0.0002
445,0.0000
446,0.0001
447,0.0000
448,0.0001
449,0.0001
450,0.0002
451,0.0001
452,0.0001
453,0.0001
454,0.0001
455,0.0000
456,0.0002
457,0.0001
458,0.0000
459,0.0002
460,0.0002
461,0.0001
462,0.0002
463,0.0000
464,0.0000
465,0.0001
466,0.0001
467,0.0002
468,0.0000
469,0.0001
470,0.0001
471,0.0001
472,0.0002
473,0.0002
474,0.0001
475,0.0002
476,0.0002
477,0.0001
478,0.0001
479,0.0001
480,0.0000
481,0.0002
482,0.0001
483,0.0001
484,0.0003
485,0.0001
486,0.0001
487,0.0001
488,0.0000
489,0.0001
490,0.0002
491,0.0002
492,0.0001
493,0.0001
494,0.0002
495,0.0001
496,0.0002
497,0.0002
498,0.0001
499,0.0001
