0,0.3771
1,0.3245
2,0.3042
3,0.2846
4,0.2635
5,0.2494
6,0.2368
7,0.2259
8,0.2170
9,0.2110
10,0.2028
11,0.1972
12,0.1928
13,0.1869
14,0.1822
15,0.1763
16,0.1736
17,0.1695
18,0.1669
19,0.1647
20,0.1616
21,0.1591
22,0.1559
23,0.1544
24,0.1520
25,0.1509
26,0.1489
27,0.1475
28,0.1449
29,0.1443
30,0.1422
31,0.1409
32,0.1400
33,0.1382
34,0.1365
35,0.1350
36,0.1329
37,0.1323
38,0.1312
39,0.1298
40,0.1282
41,0.1266
42,0.1254
43,0.1231
44,0.1218
45,0.1212
46,0.1200
47,0.1188
48,0.1178
49,0.1166
50,0.1160
51,0.1144
52,0.1134
53,0.1117
54,0.1115
55,0.1095
56,0.1081
57,0.1085
58,0.1067
59,0.1062
60,0.1060
61,0.1046
62,0.1046
63,0.1041
64,0.1026
65,0.1027
66,0.1029
67,0.1014
68,0.1023
69,0.1017
70,0.1014
71,0.1009
72,0.1006
73,0.0996
74,0.0991
75,0.0992
76,0.0985
77,0.0986
78,0.0979
79,0.0974
80,0.0967
81,0.0956
82,0.0957
83,0.0944
84,0.0932
85,0.0921
86,0.0908
87,0.0889
88,0.0863
89,0.0849
90,0.0845
91,0.0832
92,0.0820
93,0.0804
94,0.0793
95,0.0786
96,0.0776
97,0.0768
98,0.0760
99,0.0753
100,0.0747
101,0.0741
102,0.0737
103,0.0734
104,0.0732
105,0.0729
106,0.0727
107,0.0725
108,0.0724
109,0.0723
110,0.0721
111,0.0720
112,0.0719
113,0.0719
114,0.0718
115,0.0717
116,0.0717
117,0.0716
118,0.0716
119,0.0715
120,0.0715
121,0.0715
122,0.0714
123,0.0714
124,0.0714
125,0.0714
126,0.0714
127,0.0713
128,0.0713
129,0.0713
130,0.0713
131,0.0713
132,0.0712
133,0.0713
134,0.0712
135,0.0712
136,0.0712
137,0.0712
138,0.0712
139,0.0712
140,0.0712
141,0.0712
142,0.0712
143,0.0712
144,0.0712
145,0.0712
146,0.0712
147,0.0712
148,0.0712
149,0.0711
150,0.0712
151,0.0712
152,0.0712
153,0.0712
154,0.0712
155,0.0712
156,0.0712
157,0.0712
158,0.0711
159,0.0712
160,0.0712
161,0.0711
162,0.0711
163,0.0711
164,0.0711
165,0.0711
166,0.0711
167,0.0711
168,0.0711
169,0.0711
170,0.0711
171,0.0711
172,0.0711
173,0.0711
174,0.0711
175,0.0711
176,0.0711
177,0.0710
178,0.0710
179,0.0711
180,0.0710
181,0.0710
182,0.0710
183,0.0710
184,0.0710
185,0.0710
186,0.0710
187,0.0710
188,0.0710
189,0.0710
190,0.0710
191,0.0710
192,0.0710
193,0.0710
194,0.0710
195,0.0710
196,0.0710
197,0.0710
198,0.0710
199,0.0710
200,0.0710
201,0.0709
202,0.0710
203,0.0710
204,0.0710
205,0.0710
206,0.0709
207,0.0709
208,0.0709
209,0.0709
210,0.0709
211,0.0709
212,0.0709
213,0.0709
214,0.0709
215,0.0709
216,0.0709
217,0.0709
218,0.0708
219,0.0708
220,0.0708
221,0.0708
222,0.0708
223,0.0708
224,0.0708
225,0.0708
226,0.0708
227,0.0708
228,0.0707
229,0.0707
230,0.0707
231,0.0707
232,0.0707
233,0.0707
234,0.0707
235,0.0707
236,0.0707
237,0.0707
238,0.0707
239,0.0707
240,0.0707
241,0.0707
242,0.0707
243,0.0707
244,0.0707
245,0.0707
246,0.0707
247,0.0707
248,0.0707
249,0.0707
250,0.0707
251,0.0707
252,0.0707
253,0.0707
254,0.0707
255,0.0707
256,0.0707
257,0.0707
258,0.0707
259,0.0707
260,0.0707
261,0.0707
262,0.0707
263,0.0707
264,0.0707
265,0.0707
266,0.0707
267,0.0707
268,0.0707
269,0.0707
270,0.0707
271,0.0707
272,0.0707
273,0.0707
274,0.0707
275,0.0707
276,0.0707
277,0.0707
278,0.0707
279,0.0707
280,0.0707
281,0.0707
282,0.0707
283,0.0707
284,0.0707
285,0.0707
286,0.0707
287,0.0707
288,0.0707
289,0.0707
290,0.0707
291,0.0707
292,0.0707
293,0.0707
294,0.0707
295,0.0707
296,0.0707
297,0.0707
298,0.0707
299,0.0707
300,0.0707
301,0.0707
302,0.0707
303,0.0707
304,0.0707
305,0.0707
306,0.0707
307,0.0707
308,0.0707
309,0.0707
310,0.0707
311,0.0707
312,0.0707
313,0.0707
314,0.0707
315,0.0707
316,0.0707
317,0.0707
318,0.0707
319,0.0707
320,0.0707
321,0.0707
322,0.0707
323,0.0707
324,0.0707
325,0.0707
326,0.0707
327,0.0707
328,0.0707
329,0.0707
330,0.0707
331,0.0707
332,0.0707
333,0.0707
334,0.0707
335,0.0707
336,0.0707
337,0.0707
338,0.0707
339,0.0707
340,0.0707
341,0.0707
342,0.0707
343,0.0707
344,0.0707
345,0.0707
346,0.0707
347,0.0707
348,0.0707
349,0.0707
350,0.0707
351,0.0707
352,0.0707
353,0.0707
354,0.0707
355,0.0707
356,0.0707
357,0.0707
358,0.0707
359,0.0707
360,0.0707
361,0.0707
362,0.0707
363,0.0707
364,0.0707
365,0.0707
366,0.0707
367,0.0707
368,0.0707
369,0.0707
370,0.0707
371,0.0707
372,0.0707
373,0.0707
374,0.0707
375,0.0707
376,0.0707
377,0.0707
378,0.0707
379,0.0707
380,0.0707
381,0.0707
382,0.0707
383,0.0707
384,0.0707
385,0.0707
386,0.0707
387,0.0707
388,0.0707
389,0.0707
390,0.0707
391,0.0707
392,0.0707
393,0.0707
394,0.0707
395,0.0707
396,0.0707
397,0.0707
398,0.0707
399,0.0707
400,0.0707
401,0.0707
402,0.0707
403,0.0707
404,0.0707
405,0.0707
406,0.0707
407,0.0707
408,0.0707
409,0.0707
410,0.0707
411,0.0707
412,0.0707
413,0.0707
414,0.0707
415,0.0707
416,0.0707
417,0.0707
418,0.0707
419,0.0707
420,0.0707
421,0.0707
422,0.0707
423,0.0707
424,0.0707
425,0.0707
426,0.0707
427,0.0707
428,0.0707
429,0.0707
430,0.0707
431,0.0707
432,0.0707
433,0.0707
434,0.0707
435,0.0707
436,0.0707
437,0.0707
438,0.0707
439,0.0707
440,0.0707
441,0.0707
442,0.0707
443,0.0707
444,0.0707
445,0.0707
446,0.0707
447,0.0707
448,0.0707
449,0.0707
450,0.0707
451,0.0707
452,0.0707
453,0.0707
454,0.0707
455,0.0707
456,0.0707
457,0.0707
458,0.0707
459,0.0707
460,0.0707
461,0.0707
462,0.0707
463,0.0707
464,0.0707
465,0.0707
466,0.0707
467,0.0707
468,0.0707
469,0.0707
470,0.0707
471,0.0707
472,0.0707
473,0.0707
474,0.0707
475,0.0707
476,0.0707
477,0.0707
478,0.0707
479,0.0707
480,0.0707
481,0.0707
482,0.0707
483,0.0707
484,0.0707
485,0.0707
486,0.0707
487,0.0707
488,0.0707
489,0.0707
490,0.0707
491,0.0707
492,0.0707
493,0.0707
494,0.0707
495,0.0707
496,0.0707
497,0.0707
498,0.0707
499,0.0707
