0,0.3617
1,0.2918
2,0.2627
3,0.2405
4,0.2241
5,0.2100
6,0.1981
7,0.1883
8,0.1793
9,0.1719
10,0.1647
11,0.1589
12,0.1531
13,0.1482
14,0.1431
15,0.1367
16,0.1320
17,0.1276
18,0.1237
19,0.1202
20,0.1174
21,0.1146
22,0.1122
23,0.1102
24,0.1083
25,0.1068
26,0.1055
27,0.1047
28,0.1039
29,0.1030
30,0.1023
31,0.1021
32,0.1015
33,0.1009
34,0.1007
35,0.1004
36,0.0996
37,0.0996
38,0.0994
39,0.0986
40,0.0985
41,0.0981
42,0.0979
43,0.0979
44,0.0974
45,0.0972
46,0.0972
47,0.0967
48,0.0965
49,0.0964
50,0.0963
51,0.0962
52,0.0959
53,0.0958
54,0.0955
55,0.0955
56,0.0954
57,0.0950
58,0.0948
59,0.0947
60,0.0944
61,0.0942
62,0.0940
63,0.0938
64,0.0935
65,0.0933
66,0.0932
67,0.0929
68,0.0927
69,0.0926
70,0.0924
71,0.0923
72,0.0922
73,0.0921
74,0.0920
75,0.0920
76,0.0919
77,0.0919
78,0.0918
79,0.0918
80,0.0917
81,0.0917
82,0.0917
83,0.0916
84,0.0916
85,0.0916
86,0.0916
87,0.0916
88,0.0915
89,0.0915
90,0.0915
91,0.0915
92,0.0914
93,0.0914
94,0.0914
95,0.0914
96,0.0913
97,0.0913
98,0.0913
99,0.0913
100,0.0913
101,0.0913
102,0.0913
103,0.0913
104,0.0913
105,0.0913
106,0.0913
107,0.0912
108,0.0912
109,0.0912
110,0.0912
111,0.0912
112,0.0912
113,0.0912
114,0.0912
115,0.0912
116,0.0912
117,0.0912
118,0.0912
119,0.0911
120,0.0912
121,0.0911
122,0.0912
123,0.0912
124,0.0912
125,0.0911
126,0.0911
127,0.0911
128,0.0911
129,0.0911
130,0.0911
131,0.0911
132,0.0911
133,0.0911
134,0.0911
135,0.0911
136,0.0911
137,0.0911
138,0.0911
139,0.0911
140,0.0911
141,0.0911
142,0.0911
143,0.0911
144,0.0911
145,0.0911
146,0.0911
147,0.0911
148,0.0911
149,0.0911
150,0.0911
151,0.0911
152,0.0911
153,0.0911
154,0.0911
155,0.0910
156,0.0910
157,0.0911
158,0.0911
159,0.0911
160,0.0911
161,0.0911
162,0.0910
163,0.0910
164,0.0911
165,0.0910
166,0.0910
167,0.0910
168,0.0910
169,0.0910
170,0.0910
171,0.0910
172,0.0910
173,0.0910
174,0.0910
175,0.0910
176,0.0910
177,0.0910
178,0.0910
179,0.0910
180,0.0910
181,0.0910
182,0.0910
183,0.0909
184,0.0910
185,0.0909
186,0.0909
187,0.0909
188,0.0909
189,0.0909
190,0.0909
191,0.0909
192,0.0909
193,0.0908
194,0.0908
195,0.0908
196,0.0908
197,0.0908
198,0.0908
199,0.0907
200,0.0907
201,0.0907
202,0.0907
203,0.0907
204,0.0907
205,0.0907
206,0.0907
207,0.0907
208,0.0907
209,0.0907
210,0.0907
211,0.0907
212,0.0907
213,0.0907
214,0.0907
215,0.0907
216,0.0907
217,0.0907
218,0.0907
219,0.0907
220,0.0907
221,0.0907
222,0.0907
223,0.0907
224,0.0907
225,0.0907
226,0.0907
227,0.0907
228,0.0907
229,0.0907
230,0.0907
231,0.0907
232,0.0907
233,0.0907
234,0.0907
235,0.0907
236,0.0907
237,0.0907
238,0.0907
239,0.0907
240,0.0907
241,0.0907
242,0.0907
243,0.0907
244,0.0907
245,0.0907
246,0.0907
247,0.0907
248,0.0907
249,0.0907
250,0.0907
251,0.0907
252,0.0907
253,0.0907
254,0.0907
255,0.0907
256,0.0907
257,0.0907
258,0.0907
259,0.0907
260,0.0907
261,0.0907
262,0.0907
263,0.0907
264,0.0907
265,0.0907
266,0.0907
267,0.0907
268,0.0907
269,0.0907
270,0.0907
271,0.0907
272,0.0907
273,0.0907
274,0.0907
275,0.0907
276,0.0907
277,0.0907
278,0.0907
279,0.0907
280,0.0907
281,0.0907
282,0.0907
283,0.0907
284,0.0907
285,0.0907
286,0.0907
287,0.0907
288,0.0907
289,0.0907
290,0.0907
291,0.0907
292,0.0907
293,0.0907
294,0.0907
295,0.0907
296,0.0907
297,0.0907
298,0.0907
299,0.0907
300,0.0907
301,0.0907
302,0.0907
303,0.0907
304,0.0907
305,0.0907
306,0.0907
307,0.0907
308,0.0907
309,0.0907
310,0.0907
311,0.0907
312,0.0907
313,0.0907
314,0.0907
315,0.0907
316,0.0907
317,0.0907
318,0.0907
319,0.0907
320,0.0907
321,0.0907
322,0.0907
323,0.0907
324,0.0907
325,0.0907
326,0.0907
327,0.0907
328,0.0907
329,0.0907
330,0.0907
331,0.0907
332,0.0907
333,0.0907
334,0.0907
335,0.0907
336,0.0907
337,0.0907
338,0.0907
339,0.0907
340,0.0907
341,0.0907
342,0.0907
343,0.0907
344,0.0907
345,0.0907
346,0.0907
347,0.0907
348,0.0907
349,0.0907
350,0.0907
351,0.0907
352,0.0907
353,0.0907
354,0.0907
355,0.0907
356,0.0907
357,0.0907
358,0.0907
359,0.0907
360,0.0907
361,0.0907
362,0.0907
363,0.0907
364,0.0907
365,0.0907
366,0.0907
367,0.0907
368,0.0907
369,0.0907
370,0.0907
371,0.0907
372,0.0907
373,0.0907
374,0.0907
375,0.0907
376,0.0907
377,0.0907
378,0.0907
379,0.0907
380,0.0907
381,0.0907
382,0.0907
383,0.0907
384,0.0907
385,0.0907
386,0.0907
387,0.0907
388,0.0907
389,0.0907
390,0.0907
391,0.0907
392,0.0907
393,0.0907
394,0.0907
395,0.0907
396,0.0907
397,0.0907
398,0.0907
399,0.0907
400,0.0907
401,0.0907
402,0.0907
403,0.0907
404,0.0907
405,0.0907
406,0.0907
407,0.0907
408,0.0907
409,0.0907
410,0.0907
411,0.0907
412,0.0907
413,0.0907
414,0.0907
415,0.0907
416,0.0907
417,0.0907
418,0.0907
419,0.0907
420,0.0907
421,0.0907
422,0.0907
423,0.0907
424,0.0907
425,0.0907
426,0.0907
427,0.0907
428,0.0907
429,0.0907
430,0.0907
431,0.0907
432,0.0907
433,0.0907
434,0.0907
435,0.0907
436,0.0907
437,0.0907
438,0.0907
439,0.0907
440,0.0907
441,0.0907
442,0.0907
443,0.0907
444,0.0907
445,0.0907
446,0.0907
447,0.0907
448,0.0907
449,0.0907
450,0.0907
451,0.0907
452,0.0907
453,0.0907
454,0.0907
455,0.0907
456,0.0907
457,0.0907
458,0.0907
459,0.0907
460,0.0907
461,0.0907
462,0.0907
463,0.0907
464,0.0907
465,0.0907
466,0.0907
467,0.0907
468,0.0907
469,0.0907
470,0.0907
471,0.0907
472,0.0907
473,0.0907
474,0.0907
475,0.0907
476,0.0907
477,0.0907
478,0.0907
479,0.0907
480,0.0907
481,0.0907
482,0.0907
483,0.0907
484,0.0907
485,0.0907
486,0.0907
487,0.0907
488,0.0907
489,0.0907
490,0.0907
491,0.0907
492,0.0907
493,0.0907
494,0.0907
495,0.0907
496,0.0907
497,0.0907
498,0.0907
499,0.0907
