0,67303.2435
1,88811.0722
2,179004.1452
3,74582.4685
4,71415.1550
5,17519.1511
6,7400.1365
7,4490.4750
8,4501.5684
9,4139.5191
10,3047.4161
11,3693.8211
12,3493.4951
13,886.9103
14,2501.7374
15,2618.8165
16,3846.4999
17,1175.0473
18,3030.5597
19,2408.8144
20,2262.4393
21,2817.3225
22,2680.8409
23,2850.4129
24,2452.2607
25,1921.5577
26,1788.3047
27,627.3137
28,2314.0683
29,2592.3951
30,1828.7780
31,1989.1843
32,2240.0449
33,1574.3487
34,1857.1058
35,2571.4150
36,1146.8490
37,1585.5676
38,3525.4805
39,1960.5514
40,2311.9791
41,1759.3834
42,2281.5582
43,2315.5244
44,2453.8998
45,2268.7575
46,1387.4025
47,3068.9603
48,2095.3066
49,830.4076
50,2798.3045
51,3409.1585
52,1579.7911
53,2583.6282
54,2162.3975
55,2603.8331
56,1343.1030
57,3697.8216
58,2180.3070
59,2348.4283
60,3135.5330
61,4097.9220
62,5660.7891
63,1626.7360
64,4668.8771
65,1518.5556
66,3310.7872
67,5214.6260
68,5225.0123
69,5528.3992
70,3558.2824
71,6920.1582
72,10045.9730
73,12729.2504
74,10829.8431
75,12656.6777
76,3568.7703
77,12458.5152
78,6070.1311
79,10095.5082
80,9530.3221
81,8075.0660
82,4248.5124
83,5480.9249
84,971.7399
85,584.0992
86,498.3863
87,249.3321
88,111.7502
89,86.3541
90,47.4771
91,39.1399
92,11.4020
93,17.5441
94,25.2061
95,26.9109
96,59.3133
97,8.5125
98,17.2842
99,25.4058
100,15.2340
101,35.5793
102,13.9724
103,8.4272
104,4.4838
105,4.7448
106,3.4035
107,6.8368
108,5.9687
109,5.7467
110,1.6520
111,2.0295
112,3.1399
113,1.0551
114,2.9277
115,1.2895
116,2.3673
117,1.7171
118,0.5298
119,1.3490
120,0.6887
121,0.6494
122,0.3920
123,1.3291
124,0.4319
125,0.7843
126,0.6915
127,0.3030
128,0.3737
129,0.3549
130,0.3834
131,0.3937
132,0.1636
133,0.3717
134,0.2250
135,0.3617
136,0.2474
137,0.1072
138,0.1130
139,0.2093
140,0.2610
141,0.1283
142,0.1187
143,0.1500
144,0.1143
145,0.0539
146,0.1409
147,0.0446
148,0.0909
149,0.0950
150,0.0650
151,0.0691
152,0.0687
153,0.0463
154,0.0706
155,0.0668
156,0.0749
157,0.0459
158,0.0585
159,0.0915
160,0.1168
161,0.0836
162,0.0776
163,0.0543
164,0.0340
165,0.0652
166,0.0984
167,0.0356
168,0.0309
169,0.0346
170,0.0719
171,0.0534
172,0.0442
173,0.0394
174,0.0516
175,0.0318
176,0.0514
177,0.0314
178,0.0624
179,0.0213
180,0.0346
181,0.0359
182,0.0472
183,0.0336
184,0.0261
185,0.0234
186,0.0250
187,0.0231
188,0.0529
189,0.0504
190,0.0517
191,0.0165
192,0.0396
193,0.0278
194,0.0593
195,0.0241
196,0.0361
197,0.0230
198,0.0244
199,0.0504
200,0.0401
201,0.0284
202,0.0237
203,0.0400
204,0.0171
205,0.0518
206,0.0265
207,0.0488
208,0.0166
209,0.0262
210,0.0945
211,0.0442
212,0.0458
213,0.0689
214,0.0393
215,0.0413
216,0.0203
217,0.0259
218,0.0213
219,0.0188
220,0.0307
221,0.0172
222,0.0145
223,0.0153
224,0.0082
225,0.0070
226,0.0135
227,0.0080
228,0.0119
229,0.0093
230,0.0100
231,0.0043
232,0.0124
233,0.0120
234,0.0121
235,0.0085
236,0.0085
237,0.0314
238,0.0147
239,0.0058
240,0.0065
241,0.0089
242,0.0075
243,0.0122
244,0.0086
245,0.0177
246,0.0066
247,0.0105
248,0.0080
249,0.0011
250,0.0055
251,0.0355
252,0.0117
253,0.0261
254,0.0130
255,0.0096
256,0.0254
257,0.0038
258,0.0128
259,0.0086
260,0.0060
261,0.0058
262,0.0114
263,0.0096
264,0.0198
265,0.0050
266,0.0081
267,0.0120
268,0.0104
269,0.0346
270,0.0094
271,0.0075
272,0.0121
273,0.0075
274,0.0072
275,0.0086
276,0.0194
277,0.0058
278,0.0114
279,0.0106
280,0.0116
281,0.0065
282,0.0072
283,0.0207
284,0.0049
285,0.0157
286,0.0122
287,0.0081
288,0.0149
289,0.0112
290,0.0130
291,0.0151
292,0.0069
293,0.0184
294,0.0202
295,0.0082
296,0.0094
297,0.0193
298,0.0067
299,0.0091
300,0.0280
301,0.0147
302,0.0189
303,0.0082
304,0.0163
305,0.0179
306,0.0093
307,0.0054
308,0.0126
309,0.0103
310,0.0062
311,0.0080
312,0.0035
313,0.0091
314,0.0105
315,0.0196
316,0.0080
317,0.0100
318,0.0058
319,0.0086
320,0.0269
321,0.0114
322,0.0143
323,0.0088
324,0.0112
325,0.0074
326,0.0070
327,0.0132
328,0.0162
329,0.0040
330,0.0182
331,0.0166
332,0.0101
333,0.0110
334,0.0107
335,0.0131
336,0.0025
337,0.0253
338,0.0135
339,0.0113
340,0.0199
341,0.0121
342,0.0086
343,0.0043
344,0.0190
345,0.0156
346,0.0152
347,0.0087
348,0.0102
349,0.0081
350,0.0108
351,0.0080
352,0.0072
353,0.0011
354,0.0093
355,0.0105
356,0.0065
357,0.0122
358,0.0251
359,0.0161
360,0.0119
361,0.0046
362,0.0182
363,0.0126
364,0.0115
365,0.0076
366,0.0087
367,0.0069
368,0.0076
369,0.0106
370,0.0086
371,0.0058
372,0.0100
373,0.0052
374,0.0126
375,0.0122
376,0.0062
377,0.0133
378,0.0095
379,0.0164
380,0.0036
381,0.0123
382,0.0096
383,0.0091
384,0.0093
385,0.0075
386,0.0292
387,0.0084
388,0.0097
389,0.0122
390,0.0130
391,0.0058
392,0.0119
393,0.0099
394,0.0151
395,0.0071
396,0.0131
397,0.0091
398,0.0080
399,0.0142
400,0.0063
401,0.0201
402,0.0116
403,0.0097
404,0.0170
405,0.0198
406,0.0083
407,0.0103
408,0.0066
409,0.0052
410,0.0073
411,0.0047
412,0.0247
413,0.0107
414,0.0051
415,0.0155
416,0.0107
417,0.0066
418,0.0140
419,0.0130
420,0.0049
421,0.0066
422,0.0089
423,0.0110
424,0.0131
425,0.0125
426,0.0057
427,0.0097
428,0.0131
429,0.0150
430,0.0141
431,0.0077
432,0.0048
433,0.0079
434,0.0064
435,0.0136
436,0.0060
437,0.0122
438,0.0123
439,0.0122
440,0.0085
441,0.0056
442,0.0099
443,0.0273
444,0.0078
445,0.0086
446,0.0164
447,0.0093
448,0.0097
449,0.0071
450,0.0134
451,0.0086
452,0.0103
453,0.0116
454,0.0108
455,0.0061
456,0.0079
457,0.0056
458,0.0196
459,0.0168
460,0.0119
461,0.0064
462,0.0093
463,0.0119
464,0.0078
465,0.0099
466,0.0113
467,0.0077
468,0.0106
469,0.0077
470,0.0049
471,0.0108
472,0.0110
473,0.0067
474,0.0099
475,0.0108
476,0.0077
477,0.0082
478,0.0031
479,0.0073
480,0.0293
481,0.0062
482,0.0073
483,0.0166
484,0.0117
485,0.0055
486,0.0087
487,0.0091
488,0.0047
489,0.0061
490,0.0120
491,0.0025
492,0.0077
493,0.0079
494,0.0059
495,0.0067
496,0.0091
497,0.0170
498,0.0114
499,0.0190
