0,0.3705
1,0.3086
2,0.2772
3,0.2536
4,0.2358
5,0.2200
6,0.2074
7,0.1953
8,0.1844
9,0.1744
10,0.1653
11,0.1581
12,0.1516
13,0.1435
14,0.1381
15,0.1321
16,0.1277
17,0.1221
18,0.1166
19,0.1116
20,0.1074
21,0.1039
22,0.1011
23,0.0988
24,0.0968
25,0.0949
26,0.0936
27,0.0923
28,0.0912
29,0.0904
30,0.0896
31,0.0886
32,0.0879
33,0.0873
34,0.0870
35,0.0864
36,0.0857
37,0.0852
38,0.0848
39,0.0843
40,0.0839
41,0.0835
42,0.0831
43,0.0827
44,0.0823
45,0.0819
46,0.0816
47,0.0814
48,0.0812
49,0.0809
50,0.0807
51,0.0805
52,0.0805
53,0.0803
54,0.0802
55,0.0800
56,0.0799
57,0.0798
58,0.0796
59,0.0795
60,0.0794
61,0.0793
62,0.0791
63,0.0790
64,0.0789
65,0.0788
66,0.0787
67,0.0786
68,0.0785
69,0.0784
70,0.0783
71,0.0782
72,0.0781
73,0.0781
74,0.0780
75,0.0779
76,0.0779
77,0.0778
78,0.0778
79,0.0777
80,0.0777
81,0.0776
82,0.0776
83,0.0776
84,0.0775
85,0.0775
86,0.0774
87,0.0774
88,0.0774
89,0.0774
90,0.0774
91,0.0773
92,0.0773
93,0.0773
94,0.0773
95,0.0773
96,0.0773
97,0.0773
98,0.0773
99,0.0773
100,0.0773
101,0.0772
102,0.0772
103,0.0772
104,0.0772
105,0.0772
106,0.0772
107,0.0772
108,0.0772
109,0.0772
110,0.0772
111,0.0772
112,0.0772
113,0.0772
114,0.0772
115,0.0772
116,0.0772
117,0.0772
118,0.0772
119,0.0772
120,0.0772
121,0.0772
122,0.0771
123,0.0771
124,0.0771
125,0.0771
126,0.0771
127,0.0771
128,0.0771
129,0.0771
130,0.0771
131,0.0771
132,0.0771
133,0.0771
134,0.0771
135,0.0771
136,0.0771
137,0.0771
138,0.0771
139,0.0771
140,0.0771
141,0.0771
142,0.0771
143,0.0771
144,0.0771
145,0.0771
146,0.0771
147,0.0771
148,0.0771
149,0.0771
150,0.0771
151,0.0771
152,0.0771
153,0.0770
154,0.0770
155,0.0770
156,0.0770
157,0.0770
158,0.0770
159,0.0770
160,0.0770
161,0.0770
162,0.0770
163,0.0770
164,0.0770
165,0.0770
166,0.0770
167,0.0770
168,0.0770
169,0.0770
170,0.0770
171,0.0770
172,0.0770
173,0.0770
174,0.0770
175,0.0770
176,0.0770
177,0.0770
178,0.0770
179,0.0770
180,0.0770
181,0.0770
182,0.0770
183,0.0770
184,0.0770
185,0.0770
186,0.0770
187,0.0770
188,0.0770
189,0.0770
190,0.0770
191,0.0770
192,0.0770
193,0.0770
194,0.0770
195,0.0770
196,0.0770
197,0.0770
198,0.0770
199,0.0770
200,0.0770
201,0.0770
202,0.0770
203,0.0770
204,0.0770
205,0.0770
206,0.0770
207,0.0770
208,0.0770
209,0.0770
210,0.0770
211,0.0770
212,0.0770
213,0.0770
214,0.0770
215,0.0770
216,0.0770
217,0.0770
218,0.0770
219,0.0770
220,0.0770
221,0.0770
222,0.0770
223,0.0770
224,0.0770
225,0.0770
226,0.0770
227,0.0770
228,0.0770
229,0.0770
230,0.0770
231,0.0770
232,0.0770
233,0.0770
234,0.0770
235,0.0770
236,0.0770
237,0.0770
238,0.0770
239,0.0770
240,0.0770
241,0.0770
242,0.0770
243,0.0770
244,0.0770
245,0.0770
246,0.0770
247,0.0770
248,0.0770
249,0.0770
250,0.0770
251,0.0770
252,0.0770
253,0.0770
254,0.0770
255,0.0770
256,0.0770
257,0.0770
258,0.0770
259,0.0770
260,0.0770
261,0.0770
262,0.0770
263,0.0770
264,0.0770
265,0.0770
266,0.0770
267,0.0770
268,0.0770
269,0.0770
270,0.0770
271,0.0770
272,0.0770
273,0.0770
274,0.0770
275,0.0770
276,0.0770
277,0.0770
278,0.0770
279,0.0770
280,0.0770
281,0.0770
282,0.0770
283,0.0770
284,0.0770
285,0.0770
286,0.0770
287,0.0770
288,0.0770
289,0.0770
290,0.0770
291,0.0770
292,0.0770
293,0.0770
294,0.0770
295,0.0770
296,0.0770
297,0.0770
298,0.0770
299,0.0770
300,0.0770
301,0.0770
302,0.0770
303,0.0770
304,0.0770
305,0.0770
306,0.0770
307,0.0770
308,0.0770
309,0.0770
310,0.0770
311,0.0770
312,0.0770
313,0.0770
314,0.0770
315,0.0770
316,0.0770
317,0.0770
318,0.0770
319,0.0770
320,0.0770
321,0.0770
322,0.0770
323,0.0770
324,0.0770
325,0.0770
326,0.0770
327,0.0770
328,0.0770
329,0.0770
330,0.0770
331,0.0770
332,0.0770
333,0.0770
334,0.0770
335,0.0770
336,0.0770
337,0.0770
338,0.0770
339,0.0770
340,0.0770
341,0.0770
342,0.0770
343,0.0770
344,0.0770
345,0.0770
346,0.0770
347,0.0770
348,0.0770
349,0.0770
350,0.0770
351,0.0770
352,0.0770
353,0.0770
354,0.0770
355,0.0770
356,0.0770
357,0.0770
358,0.0770
359,0.0770
360,0.0770
361,0.0770
362,0.0770
363,0.0770
364,0.0770
365,0.0770
366,0.0770
367,0.0770
368,0.0770
369,0.0770
370,0.0770
371,0.0770
372,0.0770
373,0.0770
374,0.0770
375,0.0770
376,0.0770
377,0.0770
378,0.0770
379,0.0770
380,0.0770
381,0.0770
382,0.0770
383,0.0770
384,0.0770
385,0.0770
386,0.0770
387,0.0770
388,0.0770
389,0.0770
390,0.0770
391,0.0770
392,0.0770
393,0.0770
394,0.0770
395,0.0770
396,0.0770
397,0.0770
398,0.0770
399,0.0770
400,0.0770
401,0.0770
402,0.0770
403,0.0770
404,0.0770
405,0.0770
406,0.0770
407,0.0770
408,0.0770
409,0.0770
410,0.0770
411,0.0770
412,0.0770
413,0.0770
414,0.0770
415,0.0770
416,0.0770
417,0.0770
418,0.0770
419,0.0770
420,0.0770
421,0.0770
422,0.0770
423,0.0770
424,0.0770
425,0.0770
426,0.0770
427,0.0770
428,0.0770
429,0.0770
430,0.0770
431,0.0770
432,0.0770
433,0.0770
434,0.0770
435,0.0770
436,0.0770
437,0.0770
438,0.0770
439,0.0770
440,0.0770
441,0.0770
442,0.0770
443,0.0770
444,0.0770
445,0.0770
446,0.0770
447,0.0770
448,0.0770
449,0.0770
450,0.0770
451,0.0770
452,0.0770
453,0.0770
454,0.0770
455,0.0770
456,0.0770
457,0.0770
458,0.0770
459,0.0770
460,0.0770
461,0.0770
462,0.0770
463,0.0770
464,0.0770
465,0.0770
466,0.0770
467,0.0770
468,0.0770
469,0.0770
470,0.0770
471,0.0770
472,0.0770
473,0.0770
474,0.0770
475,0.0770
476,0.0770
477,0.0770
478,0.0770
479,0.0770
480,0.0770
481,0.0770
482,0.0770
483,0.0770
484,0.0770
485,0.0770
486,0.0770
487,0.0770
488,0.0770
489,0.0770
490,0.0770
491,0.0770
492,0.0770
493,0.0770
494,0.0770
495,0.0770
496,0.0770
497,0.0770
498,0.0770
499,0.0770
