0,138213.9124
1,39533.1319
2,24987.6106
3,13928.7022
4,26448.3430
5,15893.9055
6,12598.1386
7,17923.1861
8,20519.6254
9,18968.2536
10,22923.0881
11,12693.3877
12,10632.2483
13,8457.3138
14,7672.9562
15,2991.4173
16,2770.0534
17,1386.6327
18,2114.4018
19,1639.7440
20,698.8451
21,972.9759
22,982.2031
23,743.7947
24,3344.9612
25,3280.0166
26,988.9847
27,389.7149
28,378.6564
29,250.0300
30,289.4889
31,119.7582
32,207.7345
33,108.9755
34,45.8182
35,63.5757
36,30.2581
37,33.7918
38,23.0511
39,30.4165
40,94.6835
41,15.3589
42,29.5221
43,12.1688
44,10.3556
45,5.5950
46,14.9711
47,5.6586
48,12.1669
49,4.7435
50,16.0349
51,6.7672
52,5.0154
53,7.3422
54,2.6951
55,1.6136
56,6.2161
57,4.0690
58,5.3930
59,2.1990
60,2.8092
61,1.7364
62,6.4915
63,1.1135
64,2.5894
65,0.9819
66,2.7884
67,1.8568
68,0.5484
69,0.3813
70,0.2142
71,0.8813
72,0.9275
73,0.4347
74,2.1797
75,0.5322
76,0.4591
77,0.7456
78,0.2405
79,0.3682
80,0.5659
81,0.7119
82,0.3547
83,0.2273
84,2.1471
85,0.1315
86,0.0912
87,0.1155
88,0.3037
89,0.2845
90,0.1852
91,0.5922
92,1.3003
93,0.8254
94,0.1236
95,0.0836
96,0.1288
97,0.3174
98,0.1704
99,0.1094
100,0.1642
101,0.1325
102,0.0862
103,0.1996
104,0.1792
105,0.0519
106,0.1832
107,0.1243
108,0.0160
109,0.1705
110,0.0898
111,0.1541
112,0.0422
113,0.0492
114,0.1244
115,0.1526
116,0.1691
117,0.0427
118,0.1022
119,0.0392
120,0.0213
121,0.0248
122,0.0629
123,0.0241
124,0.0232
125,0.1087
126,0.0513
127,0.0349
128,0.0102
129,0.0479
130,0.0207
131,0.0216
132,0.0397
133,0.0373
134,0.0387
135,0.0113
136,0.0072
137,0.0236
138,0.0268
139,0.0297
140,0.0060
141,0.0248
142,0.0073
143,0.0633
144,0.0126
145,0.0248
146,0.0115
147,0.0508
148,0.0195
149,0.0291
150,0.0125
151,0.0045
152,0.0053
153,0.0091
154,0.0101
155,0.0056
156,0.0084
157,0.0045
158,0.0099
159,0.0023
160,0.0384
161,0.0085
162,0.0060
163,0.0048
164,0.0029
165,0.0095
166,0.0059
167,0.0036
168,0.0076
169,0.0011
170,0.0022
171,0.0023
172,0.0030
173,0.0024
174,0.0010
175,0.0024
176,0.0034
177,0.0022
178,0.0009
179,0.0014
180,0.0008
181,0.0031
182,0.0033
183,0.0005
184,0.0016
185,0.0011
186,0.0006
187,0.0008
188,0.0011
189,0.0050
190,0.0013
191,0.0005
192,0.0003
193,0.0016
194,0.0008
195,0.0004
196,0.0009
197,0.0013
198,0.0008
199,0.0011
200,0.0005
201,0.0013
202,0.0016
203,0.0014
204,0.0014
205,0.0065
206,0.0006
207,0.0008
208,0.0007
209,0.0002
210,0.0010
211,0.0003
212,0.0004
213,0.0009
214,0.0002
215,0.0009
216,0.0001
217,0.0003
218,0.0003
219,0.0006
220,0.0004
221,0.0003
222,0.0005
223,0.0006
224,0.0032
225,0.0004
226,0.0003
227,0.0002
228,0.0005
229,0.0002
230,0.0008
231,0.0010
232,0.0005
233,0.0004
234,0.0002
235,0.0009
236,0.0007
237,0.0005
238,0.0002
239,0.0002
240,0.0003
241,0.0004
242,0.0002
243,0.0008
244,0.0003
245,0.0002
246,0.0009
247,0.0003
248,0.0002
249,0.0002
250,0.0004
251,0.0005
252,0.0009
253,0.0022
254,0.0004
255,0.0004
256,0.0005
257,0.0017
258,0.0012
259,0.0002
260,0.0007
261,0.0013
262,0.0013
263,0.0007
264,0.0016
265,0.0002
266,0.0003
267,0.0002
268,0.0002
269,0.0012
270,0.0006
271,0.0001
272,0.0006
273,0.0012
274,0.0003
275,0.0008
276,0.0004
277,0.0003
278,0.0004
279,0.0003
280,0.0002
281,0.0003
282,0.0002
283,0.0003
284,0.0013
285,0.0005
286,0.0001
287,0.0002
288,0.0001
289,0.0006
290,0.0002
291,0.0004
292,0.0002
293,0.0003
294,0.0008
295,0.0010
296,0.0004
297,0.0002
298,0.0007
299,0.0002
300,0.0003
301,0.0006
302,0.0003
303,0.0001
304,0.0002
305,0.0007
306,0.0006
307,0.0007
308,0.0002
309,0.0005
310,0.0002
311,0.0002
312,0.0004
313,0.0002
314,0.0001
315,0.0003
316,0.0003
317,0.0001
318,0.0002
319,0.0006
320,0.0004
321,0.0004
322,0.0002
323,0.0001
324,0.0001
325,0.0002
326,0.0000
327,0.0001
328,0.0001
329,0.0003
330,0.0000
331,0.0002
332,0.0000
333,0.0001
334,0.0002
335,0.0001
336,0.0002
337,0.0001
338,0.0000
339,0.0001
340,0.0001
341,0.0001
342,0.0001
343,0.0012
344,0.0003
345,0.0017
346,0.0001
347,0.0000
348,0.0000
349,0.0001
350,0.0001
351,0.0001
352,0.0002
353,0.0000
354,0.0000
355,0.0002
356,0.0002
357,0.0001
358,0.0001
359,0.0001
360,0.0001
361,0.0001
362,0.0001
363,0.0001
364,0.0001
365,0.0001
366,0.0000
367,0.0011
368,0.0003
369,0.0001
370,0.0001
371,0.0000
372,0.0001
373,0.0001
374,0.0001
375,0.0001
376,0.0001
377,0.0001
378,0.0000
379,0.0001
380,0.0001
381,0.0001
382,0.0007
383,0.0001
384,0.0001
385,0.0001
386,0.0001
387,0.0002
388,0.0000
389,0.0001
390,0.0000
391,0.0001
392,0.0000
393,0.0000
394,0.0000
395,0.0000
396,0.0001
397,0.0001
398,0.0000
399,0.0000
400,0.0000
401,0.0000
402,0.0001
403,0.0000
404,0.0000
405,0.0000
406,0.0000
407,0.0000
408,0.0000
409,0.0000
410,0.0000
411,0.0000
412,0.0000
413,0.0000
414,0.0000
415,0.0001
416,0.0000
417,0.0000
418,0.0000
419,0.0000
420,0.0000
421,0.0000
422,0.0000
423,0.0001
424,0.0000
425,0.0000
426,0.0000
427,0.0000
428,0.0000
429,0.0000
430,0.0000
431,0.0000
432,0.0001
433,0.0000
434,0.0000
435,0.0000
436,0.0000
437,0.0000
438,0.0000
439,0.0000
440,0.0000
441,0.0000
442,0.0000
443,0.0000
444,0.0000
445,0.0000
446,0.0000
447,0.0000
448,0.0000
449,0.0001
450,0.0001
451,0.0000
452,0.0000
453,0.0000
454,0.0000
455,0.0000
456,0.0000
457,0.0000
458,0.0000
459,0.0000
460,0.0001
461,0.0000
462,0.0000
463,0.0000
464,0.0000
465,0.0000
466,0.0000
467,0.0000
468,0.0000
469,0.0000
470,0.0000
471,0.0001
472,0.0000
473,0.0000
474,0.0000
475,0.0000
476,0.0000
477,0.0000
478,0.0000
479,0.0000
480,0.0000
481,0.0000
482,0.0000
483,0.0000
484,0.0000
485,0.0000
486,0.0000
487,0.0000
488,0.0000
489,0.0000
490,0.0000
491,0.0000
492,0.0000
493,0.0000
494,0.0000
495,0.0000
496,0.0000
497,0.0000
498,0.0000
499,0.0000
